## w(eV)      kappa(W(mK)^-1)
    0.01             2171.66
    0.03             2171.48
    0.05              2171.1
    0.07             2170.51
    0.09             2169.69
    0.11             2168.62
    0.13             2167.25
    0.15             2165.55
    0.17             2163.48
    0.19             2160.99
    0.21             2158.03
    0.23             2154.55
    0.25             2150.49
    0.27              2145.8
    0.29             2140.42
    0.31              2134.3
    0.33             2127.39
    0.35             2119.63
    0.37             2110.99
    0.39              2101.4
    0.41             2090.84
    0.43             2079.27
    0.45             2066.65
    0.47             2052.94
    0.49             2038.14
    0.51             2022.21
    0.53             2005.15
    0.55             1986.94
    0.57             1967.57
    0.59             1947.05
    0.61             1925.38
    0.63             1902.56
    0.65             1878.62
    0.67             1853.58
    0.69             1827.46
    0.71             1800.29
    0.73             1772.11
    0.75             1742.96
    0.77             1712.89
    0.79             1681.96
    0.81             1650.22
    0.83             1617.74
    0.85             1584.59
    0.87             1550.84
    0.89             1516.57
    0.91             1481.87
    0.93             1446.81
    0.95             1411.49
    0.97                1376
    0.99             1340.43
    1.01             1304.87
    1.03             1269.41
    1.05             1234.16
    1.07              1199.2
    1.09             1164.61
    1.11             1130.49
    1.13             1096.92
    1.15             1063.98
    1.17             1031.73
    1.19             1000.26
    1.21             969.615
    1.23              939.86
    1.25             911.045
    1.27             883.214
    1.29             856.404
    1.31             830.648
    1.33             805.969
    1.35             782.386
    1.37             759.912
    1.39             738.553
    1.41             718.311
    1.43             699.182
    1.45             681.159
    1.47             664.231
    1.49             648.384
    1.51             633.601
    1.53             619.864
    1.55             607.154
    1.57              595.45
    1.59             584.734
    1.61             574.986
    1.63             566.188
    1.65             558.322
    1.67             551.374
    1.69             545.328
    1.71             540.172
    1.73             535.893
    1.75             532.479
    1.77              529.92
    1.79             528.202
    1.81             527.313
    1.83             527.238
    1.85             527.961
    1.87             529.464
    1.89             531.723
    1.91             534.715
    1.93             538.411
    1.95             542.779
    1.97             547.786
    1.99             553.395
    2.01             559.565
    2.03             566.254
    2.05             573.419
    2.07             581.014
    2.09             588.991
    2.11             597.305
    2.13             605.907
    2.15             614.749
    2.17             623.783
    2.19             632.962
    2.21             642.237
    2.23             651.564
    2.25             660.894
    2.27             670.183
    2.29             679.385
    2.31             688.456
    2.33             697.351
    2.35             706.028
    2.37             714.442
    2.39              722.55
    2.41             730.311
    2.43             737.682
    2.45             744.622
    2.47             751.088
    2.49              757.04
    2.51             762.439
    2.53             767.244
    2.55             771.417
    2.57             774.921
    2.59             777.719
    2.61             779.777
    2.63             781.061
    2.65             781.541
    2.67             781.188
    2.69             779.976
    2.71             777.883
    2.73             774.886
    2.75             770.971
    2.77             766.124
    2.79             760.336
    2.81             753.602
    2.83             745.922
    2.85             737.299
    2.87             727.742
    2.89             717.265
    2.91             705.886
    2.93             693.629
    2.95             680.522
    2.97             666.598
    2.99             651.898
    3.01             636.463
    3.03             620.343
    3.05             603.591
    3.07             586.265
    3.09             568.426
    3.11             550.141
    3.13             531.479
    3.15             512.513
    3.17             493.319
    3.19             473.973
    3.21             454.557
    3.23             435.148
    3.25             415.828
    3.27             396.676
    3.29             377.771
    3.31             359.188
    3.33                 341
    3.35             323.276
    3.37             306.082
    3.39             289.476
    3.41             273.514
    3.43             258.242
    3.45             243.703
    3.47             229.932
    3.49             216.958
    3.51             204.804
    3.53             193.484
    3.55             183.012
    3.57              173.39
    3.59             164.619
    3.61             156.694
    3.63             149.607
    3.65             143.345
    3.67             137.893
    3.69             133.233
    3.71             129.344
    3.73             126.203
    3.75             123.785
    3.77             122.066
    3.79             121.017
    3.81             120.608
    3.83             120.811
    3.85             121.591
    3.87             122.917
    3.89             124.752
    3.91             127.059
    3.93             129.798
    3.95             132.928
    3.97             136.403
    3.99             140.176
    4.01             144.197
    4.03             148.411
    4.05             152.761
    4.07             157.187
    4.09             161.623
    4.11             166.004
    4.13              170.26
    4.15             174.318
    4.17             178.108
    4.19             181.556
    4.21             184.591
    4.23             187.148
    4.25             189.163
    4.27             190.584
    4.29             191.365
    4.31             191.475
    4.33             190.895
    4.35             189.623
    4.37             187.673
    4.39             185.076
    4.41             181.879
    4.43             178.145
    4.45             173.952
    4.47             169.386
    4.49              164.54
    4.51             159.511
    4.53             154.396
    4.55             149.287
    4.57              144.27
    4.59              139.42
    4.61             134.802
    4.63             130.468
    4.65             126.458
    4.67             122.797
    4.69             119.503
    4.71             116.579
    4.73             114.021
    4.75             111.818
    4.77             109.953
    4.79             108.403
    4.81             107.142
    4.83             106.144
    4.85             105.384
    4.87             104.833
    4.89             104.465
    4.91             104.254
    4.93             104.178
    4.95             104.217
    4.97             104.353
    4.99             104.571
    5.01             104.858
    5.03             105.206
    5.05             105.606
    5.07             106.055
    5.09             106.552
    5.11             107.096
    5.13             107.689
    5.15             108.337
    5.17             109.044
    5.19              109.82
    5.21             110.673
    5.23             111.612
    5.25              112.65
    5.27             113.798
    5.29             115.068
    5.31             116.474
    5.33             118.027
    5.35             119.742
    5.37             121.632
    5.39             123.709
    5.41             125.985
    5.43             128.473
    5.45             131.182
    5.47             134.122
    5.49             137.302
    5.51             140.727
    5.53             144.402
    5.55             148.329
    5.57             152.508
    5.59             156.934
    5.61             161.601
    5.63             166.498
    5.65              171.61
    5.67             176.918
    5.69             182.397
    5.71              188.02
    5.73             193.753
    5.75             199.557
    5.77             205.391
    5.79             211.206
    5.81             216.953
    5.83             222.579
    5.85             228.027
    5.87             233.243
    5.89             238.171
    5.91             242.757
    5.93              246.95
    5.95             250.704
    5.97             253.979
    5.99             256.743
    6.01             258.971
    6.03             260.647
    6.05             261.766
    6.07             262.331
    6.09             262.357
    6.11             261.867
    6.13             260.893
    6.15             259.475
    6.17             257.659
    6.19             255.498
    6.21             253.046
    6.23             250.362
    6.25             247.505
    6.27             244.531
    6.29             241.498
    6.31             238.458
    6.33              235.46
    6.35             232.546
    6.37             229.756
    6.39             227.121
    6.41             224.665
    6.43             222.409
    6.45             220.362
    6.47             218.532
    6.49             216.918
    6.51             215.514
    6.53             214.309
    6.55             213.286
    6.57             212.426
    6.59             211.706
    6.61               211.1
    6.63             210.579
    6.65             210.115
    6.67             209.678
    6.69             209.238
    6.71             208.765
    6.73              208.23
    6.75             207.609
    6.77             206.874
    6.79             206.005
    6.81             204.981
    6.83             203.787
    6.85             202.407
    6.87             200.832
    6.89             199.054
    6.91              197.07
    6.93             194.878
    6.95              192.48
    6.97              189.88
    6.99             187.086
    7.01             184.108
    7.03             180.956
    7.05             177.643
    7.07             174.185
    7.09             170.597
    7.11             166.895
    7.13             163.097
    7.15             159.221
    7.17             155.284
    7.19             151.305
    7.21             147.301
    7.23              143.29
    7.25             139.289
    7.27             135.315
    7.29             131.384
    7.31             127.512
    7.33             123.713
    7.35             120.003
    7.37             116.393
    7.39             112.899
    7.41              109.53
    7.43             106.299
    7.45             103.215
    7.47             100.287
    7.49             97.5247
    7.51             94.9331
    7.53             92.5181
    7.55             90.2832
    7.57             88.2303
    7.59             86.3591
    7.61             84.6671
    7.63             83.1491
    7.65             81.7972
    7.67             80.6004
    7.69             79.5444
    7.71             78.6119
    7.73             77.7821
    7.75             77.0312
    7.77             76.3326
    7.79             75.6579
    7.81             74.9772
    7.83             74.2603
    7.85              73.478
    7.87             72.6036
    7.89             71.6137
    7.91             70.4898
    7.93             69.2194
    7.95             67.7963
    7.97             66.2215
    7.99             64.5025
    8.01              62.653
    8.03             60.6921
    8.05             58.6429
    8.07             56.5311
    8.09             54.3841
    8.11              52.229
    8.13             50.0922
    8.15             47.9981
    8.17             45.9683
    8.19             44.0219
    8.21             42.1744
    8.23             40.4384
    8.25             38.8231
    8.27             37.3353
    8.29              35.979
    8.31             34.7559
    8.33             33.6658
    8.35             32.7069
    8.37              31.876
    8.39              31.169
    8.41             30.5806
    8.43             30.1049
    8.45             29.7357
    8.47             29.4661
    8.49             29.2891
    8.51             29.1974
    8.53             29.1834
    8.55             29.2397
    8.57             29.3587
    8.59             29.5328
    8.61             29.7543
    8.63             30.0159
    8.65             30.3099
    8.67             30.6291
    8.69             30.9663
    8.71             31.3145
    8.73             31.6668
    8.75             32.0167
    8.77             32.3579
    8.79             32.6844
    8.81             32.9907
    8.83             33.2711
    8.85             33.5216
    8.87             33.7377
    8.89             33.9155
    8.91             34.0517
    8.93             34.1436
    8.95              34.189
    8.97             34.1863
    8.99             34.1345
    9.01             34.0333
    9.03             33.8826
    9.05             33.6831
    9.07              33.436
    9.09             33.1428
    9.11             32.8056
    9.13             32.4268
    9.15             32.0092
    9.17             31.5558
    9.19             31.0699
    9.21             30.5548
    9.23             30.0144
    9.25             29.4521
    9.27             28.8718
    9.29             28.2771
    9.31             27.6718
    9.33             27.0595
    9.35             26.4437
    9.37             25.8277
    9.39             25.2149
    9.41             24.6084
    9.43              24.011
    9.45             23.4255
    9.47             22.8545
    9.49             22.3003
    9.51             21.7651
    9.53             21.2505
    9.55             20.7591
    9.57              20.292
    9.59             19.8506
    9.61              19.436
    9.63             19.0493
    9.65             18.6912
    9.67             18.3623
    9.69             18.0629
    9.71             17.7932
    9.73             17.5531
    9.75             17.3422
    9.77             17.1601
    9.79             17.0061
    9.81             16.8793
    9.83             16.7786
    9.85             16.7028
    9.87             16.6507
    9.89             16.6209
    9.91             16.6118
    9.93              16.622
    9.95               16.65
    9.97             16.6944
    9.99             16.7539
   10.01             16.8271
   10.03              16.913
   10.05             17.0104
   10.07             17.1183
   10.09              17.236
   10.11             17.3625
   10.13             17.4972
   10.15             17.6394
   10.17             17.7883
   10.19             17.9433
   10.21             18.1037
   10.23             18.2686
   10.25             18.4372
   10.27             18.6085
   10.29             18.7817
   10.31             18.9555
   10.33             19.1287
   10.35             19.3002
   10.37             19.4687
   10.39             19.6327
   10.41             19.7909
   10.43             19.9419
   10.45             20.0845
   10.47             20.2172
   10.49             20.3388
   10.51             20.4483
   10.53             20.5445
   10.55             20.6266
   10.57             20.6937
   10.59             20.7454
   10.61             20.7811
   10.63             20.8006
   10.65             20.8038
   10.67             20.7909
   10.69             20.7621
   10.71              20.718
   10.73              20.659
   10.75             20.5861
   10.77             20.5001
   10.79             20.4021
   10.81             20.2933
   10.83             20.1748
   10.85              20.048
   10.87             19.9141
   10.89             19.7745
   10.91             19.6305
   10.93             19.4832
   10.95             19.3339
   10.97             19.1837
   10.99             19.0335
   11.01             18.8841
   11.03             18.7361
   11.05             18.5901
   11.07             18.4462
   11.09             18.3046
   11.11              18.165
   11.13             18.0271
   11.15             17.8904
   11.17             17.7539
   11.19             17.6167
   11.21             17.4777
   11.23             17.3355
   11.25             17.1885
   11.27             17.0354
   11.29             16.8744
   11.31             16.7039
   11.33             16.5223
   11.35             16.3282
   11.37             16.1201
   11.39             15.8969
   11.41             15.6575
   11.43             15.4012
   11.45             15.1276
   11.47             14.8366
   11.49             14.5283
   11.51             14.2034
   11.53             13.8627
   11.55             13.5075
   11.57             13.1392
   11.59             12.7596
   11.61             12.3706
   11.63             11.9744
   11.65             11.5731
   11.67              11.169
   11.69             10.7642
   11.71              10.361
   11.73             9.96136
   11.75             9.56713
   11.77             9.18001
   11.79             8.80145
   11.81             8.43266
   11.83             8.07466
   11.85             7.72817
   11.87             7.39376
   11.89             7.07175
   11.91             6.76227
   11.93              6.4653
   11.95             6.18069
   11.97             5.90816
   11.99             5.64736
   12.01             5.39787
   12.03             5.15923
   12.05             4.93097
   12.07             4.71261
   12.09             4.50369
   12.11             4.30377
   12.13             4.11244
   12.15             3.92933
   12.17             3.75413
   12.19             3.58653
   12.21             3.42631
   12.23             3.27326
   12.25             3.12721
   12.27             2.98802
   12.29             2.85559
   12.31             2.72982
   12.33             2.61063
   12.35             2.49794
   12.37             2.39167
   12.39             2.29173
   12.41             2.19801
   12.43             2.11038
   12.45             2.02869
   12.47             1.95274
   12.49              1.8823
   12.51             1.81712
   12.53             1.75689
   12.55             1.70126
   12.57             1.64988
   12.59             1.60235
   12.61              1.5582
   12.63             1.51717
   12.65             1.47881
   12.67             1.44278
   12.69              1.4088
   12.71             1.37676
   12.73              1.3465
   12.75             1.31795
   12.77              1.2913
   12.79              1.2668
   12.81              1.2448
   12.83             1.22575
   12.85             1.21016
   12.87             1.19861
   12.89             1.19169
   12.91             1.18996
   12.93             1.19399
   12.95             1.20426
   12.97              1.2212
   12.99             1.24515
   13.01             1.27636
   13.03             1.31499
   13.05             1.36109
   13.07             1.41465
   13.09             1.47553
   13.11             1.54353
   13.13             1.61836
   13.15             1.69965
   13.17             1.78692
   13.19             1.87974
   13.21             1.97754
   13.23             2.07969
   13.25             2.18553
   13.27              2.2944
   13.29             2.40593
   13.31             2.51883
   13.33             2.63269
   13.35             2.74686
   13.37             2.86073
   13.39             2.97375
   13.41             3.08547
   13.43              3.1955
   13.45             3.30358
   13.47             3.40957
   13.49             3.51344
   13.51             3.61532
   13.53             3.71549
   13.55             3.81432
   13.57             3.91236
   13.59             4.01028
   13.61             4.10889
   13.63             4.20911
   13.65             4.31195
   13.67             4.41852
   13.69                4.53
   13.71             4.64761
   13.73             4.77263
   13.75             4.90632
   13.77             5.04997
   13.79              5.2048
   13.81             5.37201
   13.83             5.55271
   13.85             5.74792
   13.87             5.95857
   13.89             6.18541
   13.91             6.42906
   13.93             6.68999
   13.95             6.96848
   13.97             7.26475
   13.99             7.57837
   14.01             7.90914
   14.03             8.25649
   14.05             8.61965
   14.07             8.99762
   14.09              9.3892
   14.11               9.793
   14.13             10.2074
   14.15             10.6307
   14.17              11.061
   14.19             11.4963
   14.21             11.9344
   14.23             12.3731
   14.25             12.8101
   14.27             13.2433
   14.29             13.6702
   14.31             14.0886
   14.33             14.4964
   14.35             14.8914
   14.37             15.2715
   14.39             15.6349
   14.41             15.9798
   14.43             16.3045
   14.45             16.6078
   14.47             16.8881
   14.49             17.1447
   14.51             17.3764
   14.53             17.5828
   14.55             17.7633
   14.57             17.9177
   14.59              18.046
   14.61             18.1483
   14.63              18.225
   14.65             18.2766
   14.67             18.3039
   14.69             18.3078
   14.71             18.2895
   14.73               18.25
   14.75             18.1908
   14.77             18.1135
   14.79             18.0197
   14.81             17.9111
   14.83             17.7895
   14.85              17.657
   14.87             17.5156
   14.89             17.3673
   14.91             17.2144
   14.93             17.0589
   14.95             16.9032
   14.97             16.7495
   14.99             16.6001
   15.01             16.4573
   15.03             16.3234
   15.05             16.2006
   15.07             16.0912
   15.09             15.9975
   15.11             15.9217
   15.13             15.8657
   15.15             15.8318
   15.17             15.8219
   15.19             15.8379
   15.21             15.8816
   15.23             15.9546
   15.25             16.0585
   15.27             16.1946
   15.29             16.3642
   15.31             16.5683
   15.33             16.8078
   15.35             17.0833
   15.37             17.3952
   15.39             17.7436
   15.41             18.1285
   15.43             18.5499
   15.45             19.0064
   15.47             19.4976
   15.49             20.0222
   15.51             20.5787
   15.53             21.1653
   15.55               21.78
   15.57             22.4203
   15.59             23.0836
   15.61              23.767
   15.63             24.4674
   15.65             25.1813
   15.67             25.9052
   15.69             26.6352
   15.71             27.3674
   15.73             28.0979
   15.75             28.8224
   15.77             29.5368
   15.79             30.2369
   15.81             30.9187
   15.83             31.5781
   15.85             32.2111
   15.87             32.8142
   15.89             33.3838
   15.91             33.9167
   15.93               34.41
   15.95              34.861
   15.97             35.2677
   15.99             35.6282
   16.01             35.9413
   16.03             36.2062
   16.05             36.4223
   16.07             36.5901
   16.09             36.7101
   16.11             36.7837
   16.13             36.8125
   16.15             36.7991
   16.17             36.7462
   16.19             36.6572
   16.21             36.5362
   16.23             36.3875
   16.25             36.2162
   16.27             36.0275
   16.29             35.8273
   16.31             35.6219
   16.33             35.4178
   16.35              35.222
   16.37             35.0418
   16.39             34.8845
   16.41             34.7578
   16.43             34.6696
   16.45             34.6276
   16.47             34.6397
   16.49             34.7135
   16.51             34.8565
   16.53             35.0757
   16.55             35.3778
   16.57             35.7688
   16.59             36.2536
   16.61             36.8363
   16.63             37.5198
   16.65             38.3056
   16.67             39.1936
   16.69             40.1818
   16.71             41.2667
   16.73             42.4428
   16.75             43.7029
   16.77             45.0379
   16.79             46.4377
   16.81             47.8899
   16.83             49.3821
   16.85             50.9011
   16.87             52.4334
   16.89             53.9657
   16.91             55.4852
   16.93             56.9798
   16.95             58.4384
   16.97             59.8509
   16.99             61.2085
   17.01             62.5033
   17.03             63.7289
   17.05             64.8796
   17.07             65.9509
   17.09             66.9391
   17.11             67.8412
   17.13             68.6552
   17.15             69.3792
   17.17             70.0125
   17.19             70.5545
   17.21             71.0053
   17.23             71.3653
   17.25             71.6357
   17.27             71.8179
   17.29             71.9139
   17.31              71.926
   17.33             71.8573
   17.35              71.711
   17.37             71.4909
   17.39             71.2014
   17.41              70.847
   17.43             70.4328
   17.45             69.9641
   17.47             69.4468
   17.49             68.8866
   17.51               68.29
   17.53             67.6631
   17.55             67.0125
   17.57             66.3448
   17.59             65.6665
   17.61             64.9843
   17.63             64.3045
   17.65             63.6336
   17.67             62.9777
   17.69             62.3427
   17.71             61.7344
   17.73             61.1582
   17.75             60.6192
   17.77             60.1223
   17.79             59.6718
   17.81             59.2719
   17.83             58.9264
   17.85             58.6388
   17.87              58.412
   17.89             58.2491
   17.91             58.1526
   17.93             58.1247
   17.95             58.1676
   17.97             58.2832
   17.99             58.4733
   18.01             58.7397
   18.03             59.0838
   18.05             59.5073
   18.07             60.0116
   18.09              60.598
   18.11              61.268
   18.13             62.0227
   18.15              62.863
   18.17             63.7897
   18.19             64.8032
   18.21             65.9035
   18.23               67.09
   18.25             68.3617
   18.27             69.7169
   18.29             71.1532
   18.31             72.6676
   18.33             74.2565
   18.35             75.9156
   18.37             77.6401
   18.39             79.4246
   18.41             81.2635
   18.43             83.1505
   18.45             85.0794
   18.47             87.0435
   18.49             89.0359
   18.51             91.0497
   18.53             93.0779
   18.55              95.113
   18.57             97.1481
   18.59             99.1756
   18.61             101.188
   18.63             103.179
   18.65             105.139
   18.67             107.063
   18.69             108.942
   18.71             110.769
   18.73             112.538
   18.75             114.241
   18.77             115.871
   18.79             117.422
   18.81             118.889
   18.83             120.264
   18.85             121.543
   18.87             122.721
   18.89             123.793
   18.91             124.755
   18.93             125.605
   18.95             126.339
   18.97             126.955
   18.99             127.452
   19.01             127.829
   19.03             128.086
   19.05             128.223
   19.07             128.242
   19.09             128.143
   19.11             127.929
   19.13             127.603
   19.15             127.167
   19.17             126.624
   19.19              125.98
   19.21             125.236
   19.23             124.399
   19.25             123.471
   19.27             122.457
   19.29             121.362
   19.31              120.19
   19.33             118.945
   19.35              117.63
   19.37              116.25
   19.39             114.807
   19.41             113.306
   19.43             111.748
   19.45             110.137
   19.47             108.474
   19.49             106.762
   19.51             105.001
   19.53             103.193
   19.55             101.339
   19.57               99.44
   19.59             97.4957
   19.61             95.5071
   19.63             93.4745
   19.65             91.3983
   19.67             89.2789
   19.69             87.1171
   19.71             84.9137
   19.73             82.6698
   19.75             80.3872
   19.77             78.0675
   19.79             75.7133
   19.81             73.3275
   19.83             70.9134
   19.85             68.4749
   19.87             66.0166
   19.89             63.5433
   19.91             61.0604
   19.93             58.5739
   19.95             56.0899
   19.97             53.6148
   19.99             51.1553
   20.01             48.7181
