## w(eV)         sigma(Sm^-1)        error(Sm^-1)
    0.01         1.17331e+06             236.897
    0.03         1.17306e+06             237.221
    0.05         1.17253e+06             237.173
    0.07         1.17171e+06             237.195
    0.09         1.17062e+06             237.224
    0.11         1.16926e+06             237.257
    0.13         1.16763e+06             237.295
    0.15         1.16573e+06             237.334
    0.17         1.16357e+06             237.372
    0.19         1.16115e+06             237.408
    0.21         1.15847e+06             237.439
    0.23         1.15554e+06             237.461
    0.25         1.15235e+06             237.473
    0.27         1.14892e+06             237.469
    0.29         1.14525e+06             237.448
    0.31         1.14135e+06             237.405
    0.33         1.13721e+06             237.336
    0.35         1.13284e+06             237.238
    0.37         1.12826e+06             237.105
    0.39         1.12346e+06             236.934
    0.41         1.11844e+06             236.719
    0.43         1.11323e+06             236.457
    0.45         1.10782e+06             236.142
    0.47         1.10222e+06              235.77
    0.49         1.09644e+06             235.335
    0.51         1.09048e+06             234.833
    0.53         1.08435e+06              234.26
    0.55         1.07806e+06             233.609
    0.57         1.07161e+06             232.876
    0.59         1.06502e+06             232.056
    0.61         1.05829e+06             231.144
    0.63         1.05142e+06             230.136
    0.65         1.04443e+06             229.026
    0.67         1.03732e+06             227.811
    0.69          1.0301e+06             226.487
    0.71         1.02277e+06             225.047
    0.73         1.01536e+06              223.49
    0.75         1.00785e+06             221.811
    0.77         1.00026e+06             220.006
    0.79              992595             218.073
    0.81              984865             216.007
    0.83              977075             213.807
    0.85              969232              211.47
    0.87              961343             208.994
    0.89              953413             206.374
    0.91              945451             203.616
    0.93              937461             200.712
    0.95              929450             197.663
    0.97              921424              194.47
    0.99              913389             191.132
    1.01              905349             187.649
    1.03              897311             184.022
    1.05              889279             180.253
    1.07              881259             176.344
    1.09              873254             172.295
    1.11              865269             168.111
    1.13              857309             163.793
    1.15              849377             159.345
    1.17              841476             154.772
    1.19              833612             150.076
    1.21              825786             145.263
    1.23              818001             140.337
    1.25              810261             135.305
    1.27              802568             130.172
    1.29              794924             124.944
    1.31              787332             119.628
    1.33              779793             114.231
    1.35              772309             108.759
    1.37              764881             103.222
    1.39              757511             97.6256
    1.41              750200             91.9784
    1.43              742950             86.2904
    1.45              735759             80.5695
    1.47              728630             74.8246
    1.49              721563             69.0649
    1.51              714558             63.2999
    1.53              707616             57.5391
    1.55              700736             51.7921
    1.57              693918             46.0687
    1.59              687163             40.3788
    1.61              680470             34.7293
    1.63              673839              29.139
    1.65              667270             23.6091
    1.67              660763             18.1525
    1.69              654316             12.7789
    1.71              647930             7.49816
    1.73              641605             2.31996
    1.75              635339             2.74621
    1.77              629132             7.69099
    1.79              622985             12.5052
    1.81              616896               17.18
    1.83              610866             21.7066
    1.85              604893             26.0766
    1.87              598979              30.282
    1.89              593122              34.315
    1.91              587322             38.1681
    1.93              581581             41.8344
    1.95              575897             45.3072
    1.97              570270             48.5802
    1.99              564702             51.6477
    2.01              559192             54.5044
    2.03              553741             57.1454
    2.05              548350             59.5664
    2.07              543018             61.7634
    2.09              537748             63.7332
    2.11              532540              65.559
    2.13              527394             66.9806
    2.15              522313             68.2541
    2.17              517296             69.2925
    2.19              512346             70.0951
    2.21              507465              70.662
    2.23              502653             70.9937
    2.25              497912             71.0914
    2.27              493244             70.9567
    2.29              488651              70.592
    2.31              484135             70.0001
    2.33              479698             69.1843
    2.35              475342             68.1487
    2.37              471069             66.8978
    2.39              466882             65.4366
    2.41              462782             63.7707
    2.43              458772             61.9062
    2.45              454855             59.8497
    2.47              451032             57.6083
    2.49              447306             55.1895
    2.51              443680             52.6013
    2.53              440156             49.8523
    2.55              436735             46.9512
    2.57              433421             43.9073
    2.59              430216             40.7302
    2.61              427121             37.4299
    2.63              424140             34.0166
    2.65              421273              30.501
    2.67              418524              26.894
    2.69              415894             23.2065
    2.71              413384               19.45
    2.73              410996             15.6361
    2.75              408732             11.7762
    2.77              406594             7.88243
    2.79              404582             3.96655
    2.81              402697            0.040602
    2.83              400940             3.88335
    2.85              399312             7.79328
    2.87              397813              11.677
    2.89              396445             15.5226
    2.91              395205             19.3181
    2.93              394096             23.0516
    2.95              393115             26.7114
    2.97              392263             30.2859
    2.99              391539             33.7638
    3.01              390942             37.1338
    3.03              390469             40.3851
    3.05              390121              43.507
    3.07              389895             46.4892
    3.09              389789             49.3216
    3.11              389800             51.9941
    3.13              389927             54.4986
    3.15              390167             56.8261
    3.17              390516             58.9665
    3.19              390971             60.9126
    3.21              391528             62.6569
    3.23              392185             64.1923
    3.25              392937             65.5122
    3.27              393780             66.6104
    3.29              394709             67.4815
    3.31              395720             68.1203
    3.33              396809             68.5226
    3.35              397970             68.6843
    3.37              399198             68.6023
    3.39              400488             68.2738
    3.41              401835             67.6967
    3.43              403232             66.8696
    3.45              404675             65.7916
    3.47              406157             64.4625
    3.49              407672             62.8825
    3.51              409216             61.0528
    3.53              410780             58.9748
    3.55              412360             56.6509
    3.57              413949             54.0838
    3.59              415541             51.2769
    3.61              417130             48.2343
    3.63              418709             44.9605
    3.65              420273             41.4608
    3.67              421815             37.7407
    3.69              423330             33.8067
    3.71              424811             29.6654
    3.73              426252             25.3242
    3.75              427648             20.7909
    3.77              428993             16.0737
    3.79              430281             11.1813
    3.81              431508             6.12291
    3.83              432667            0.908049
    3.85              433755             4.45338
    3.87              434766             9.95112
    3.89              435695             15.5746
    3.91              436538              21.362
    3.93              437292             27.0949
    3.95              437953              33.088
    3.97              438515             39.1027
    3.99              438978             45.1863
    4.01              439337             51.3269
    4.03              439589             57.5123
    4.05              439733             63.7305
    4.07              439766             69.9693
    4.09              439687             76.2164
    4.11              439493             82.4597
    4.13              439185              88.687
    4.15              438761             94.8862
    4.17              438221             101.045
    4.19              437564             107.153
    4.21              436791             113.196
    4.23              435904             119.165
    4.25              434901             125.047
    4.27              433786             130.831
    4.29              432559             136.508
    4.31              431223             142.066
    4.33              429780             147.495
    4.35              428232             152.785
    4.37              426583             157.927
    4.39              424836             162.913
    4.41              422994             167.732
    4.43              421062             172.377
    4.45              419044             176.841
    4.47              416943             181.115
    4.49              414766             185.194
    4.51              412516             189.069
    4.53              410200             192.737
    4.55              407823             196.191
    4.57              405390             199.426
    4.59              402907             202.438
    4.61              400382             205.222
    4.63              397818             207.777
    4.65              395225             210.098
    4.67              392607             212.183
    4.69              389972             214.031
    4.71              387326             215.639
    4.73              384678             217.008
    4.75              382032             218.137
    4.77              379397             219.025
    4.79              376780             219.674
    4.81              374189             220.084
    4.83              371629             220.257
    4.85              369108             220.195
    4.87              366634             219.902
    4.89              364214             219.378
    4.91              361854             218.626
    4.93              359562             217.651
    4.95              357344             216.457
    4.97              355208             215.047
    4.99              353159             213.427
    5.01              351205             211.601
    5.03              349352             209.574
    5.05              347606             207.351
    5.07              345972             204.939
    5.09              344458             202.343
    5.11              343068              199.57
    5.13              341808             196.625
    5.15              340683             193.514
    5.17              339697             190.271
    5.19              338857             186.825
    5.21              338165              183.26
    5.23              337626             179.556
    5.25              337245             175.722
    5.27              337024             171.763
    5.29              336966             167.688
    5.31              337075             163.503
    5.33              337353             159.215
    5.35              337803             154.831
    5.37              338427             150.359
    5.39              339226             145.805
    5.41              340201             141.177
    5.43              341354             136.481
    5.45              342685             131.725
    5.47              344195             126.914
    5.49              345883             122.056
    5.51              347749             117.157
    5.53              349793             112.224
    5.55              352014             107.263
    5.57              354410              102.28
    5.59              356980             97.2805
    5.61              359721             92.2716
    5.63              362632             87.2585
    5.65              365709             82.2469
    5.67              368950             77.2421
    5.69              372352             72.2495
    5.71              375911             67.2743
    5.73              379624             62.3213
    5.75              383486             57.3954
    5.77              387493             52.5012
    5.79              391640             47.6434
    5.81              395923              42.826
    5.83              400337             38.0534
    5.85              404875             33.3296
    5.87              409534             28.6584
    5.89              414306             24.0436
    5.91              419186             19.4886
    5.93              424168             14.9969
    5.95              429246             10.5718
    5.97              434413              6.2164
    5.99              439662             1.93368
    6.01              444987             2.27349
    6.03              450382             6.40236
    6.05              455838             10.4503
    6.07              461349             14.4149
    6.09              466907             18.2936
    6.11              472506             22.0843
    6.13              478139             25.7848
    6.15              483797              29.393
    6.17              489474             32.9069
    6.19              495162             36.3255
    6.21              500854             39.6445
    6.23              506543             42.8646
    6.25              512221             45.9835
    6.27              517880             48.9995
    6.29              523515             51.9112
    6.31              529116             54.7172
    6.33              534678             57.4161
    6.35              540194             60.0067
    6.37              545656             62.4877
    6.39              551058             64.8579
    6.41              556392             67.1164
    6.43              561653             69.2619
    6.45              566834              71.294
    6.47              571929             73.2108
    6.49              576932             75.0117
    6.51              581837             76.6961
    6.53              586637             78.2632
    6.55              591329              79.712
    6.57              595905             81.0421
    6.59              600362             82.2526
    6.61              604693              83.343
    6.63              608895             84.3127
    6.65              612964             85.1613
    6.67              616893             85.8882
    6.69              620681              86.493
    6.71              624322             86.9755
    6.73              627814             87.3352
    6.75              631153              87.572
    6.77              634336             87.6857
    6.79              637359              87.676
    6.81              640222              87.543
    6.83              642920             87.2867
    6.85              645453             86.9072
    6.87              647818             86.4045
    6.89              650014             85.7789
    6.91              652039             85.0306
    6.93              653892             84.1601
    6.95              655573             83.1678
    6.97              657080             82.0542
    6.99              658413               80.82
    7.01              659572             79.4658
    7.03              660558             77.9925
    7.05              661369             76.4009
    7.07              662008             74.6921
    7.09              662473             72.8671
    7.11              662767             70.9271
    7.13              662890             68.8736
    7.15              662844             66.7078
    7.17              662629             64.4313
    7.19              662248             62.0458
    7.21              661702             59.5531
    7.23              660993              56.955
    7.25              660122             54.2537
    7.27              659093             51.4511
    7.29              657908             48.5496
    7.31              656568             45.5516
    7.33              655077             42.4597
    7.35              653437             39.2764
    7.37              651651             36.0047
    7.39              649721             32.6474
    7.41              647651             29.2076
    7.43              645443             25.6885
    7.45              643101             22.0935
    7.47              640628             18.4261
    7.49              638026             14.6898
    7.51              635300             10.8885
    7.53              632452             7.02599
    7.55              629485             3.10642
    7.57              626403            0.866251
    7.59              623210             4.88763
    7.61              619908             8.95329
    7.63              616501             13.0587
    7.65              612992             17.1992
    7.67              609384               21.37
    7.69              605682             25.5661
    7.71              601887             29.7827
    7.73              598004             34.0145
    7.75              594036             38.2564
    7.77              589985              42.503
    7.79              585856              46.749
    7.81              581651             50.9887
    7.83              577373             55.2168
    7.85              573025             59.4275
    7.87              568611             63.6151
    7.89              564134             67.7739
    7.91              559596              71.898
    7.93              555000             75.9818
    7.95              550349             80.0192
    7.97              545645             84.0044
    7.99              540893             87.9315
    8.01              536093             91.7946
    8.03              531250             95.5879
    8.05              526364             99.3055
    8.07              521440             102.942
    8.09              516478              106.49
    8.11              511483             109.946
    8.13              506455             113.303
    8.15              501397             116.556
    8.17              496312               119.7
    8.19              491202             122.728
    8.21              486068             125.636
    8.23              480912             128.418
    8.25              475738             131.072
    8.27              470546             133.589
    8.29              465338             135.967
    8.31              460117             138.201
    8.33              454884             140.287
    8.35              449641             142.221
    8.37              444389             143.998
    8.39              439131             145.616
    8.41              433867             147.071
    8.43              428600             148.359
    8.45              423331              149.48
    8.47              418061             150.428
    8.49              412792             151.204
    8.51              407525             151.804
    8.53              402262             152.227
    8.55              397004             152.471
    8.57              391752             152.536
    8.59              386508             152.421
    8.61              381273             152.126
    8.63              376048             151.651
    8.65              370834             150.995
    8.67              365633              150.16
    8.69              360445             149.147
    8.71              355272             147.957
    8.73              350115             146.592
    8.75              344975             145.052
    8.77              339852             143.343
    8.79              334749             141.466
    8.81              329666             139.423
    8.83              324604              137.22
    8.85              319563             134.858
    8.87              314546             132.342
    8.89              309553             129.677
    8.91              304584             126.867
    8.93              299641             123.916
    8.95              294724             120.831
    8.97              289835             117.617
    8.99              284975             114.279
    9.01              280143             110.824
    9.03              275341             107.257
    9.05              270570             103.585
    9.07              265831             99.8147
    9.09              261123             95.9526
    9.11              256449             92.0057
    9.13              251808             87.9814
    9.15              247202             83.8864
    9.17              242632             79.7283
    9.19              238097             75.5144
    9.21              233598             71.2523
    9.23              229137             66.9493
    9.25              224714             62.6132
    9.27              220330             58.2514
    9.29              215984             53.8716
    9.31              211679             49.4811
    9.33              207414             45.0877
    9.35              203190             40.6986
    9.37              199007             36.3212
    9.39              194867             31.9628
    9.41              190769             27.6305
    9.43              186715             23.3313
    9.45              182704              19.072
    9.47              178738             14.8593
    9.49              174816             10.6997
    9.51              170940             6.59943
    9.53              167109             2.56457
    9.55              163325             1.39898
    9.57              159587             5.28563
    9.59              155896             9.09004
    9.61              152252             12.8071
    9.63              148656              16.432
    9.65              145109             19.9602
    9.67              141609             23.3874
    9.69              138159             26.7098
    9.71              134757             29.9235
    9.73              131406             33.0253
    9.75              128103             36.0121
    9.77              124851             38.8813
    9.79              121649             41.6303
    9.81              118497              44.257
    9.83              115395             46.7598
    9.85              112345              49.137
    9.87              109345             51.3876
    9.89              106396             53.5107
    9.91              103499             55.5057
    9.93              100652             57.3724
    9.95             97857.3             59.1108
    9.97             95113.5             60.7211
    9.99             92420.9             62.2041
   10.01             89779.7             63.5606
   10.03             87189.8             64.7917
   10.05             84651.1             65.8987
   10.07             82163.5             66.8833
   10.09             79726.9             67.7474
   10.11             77341.2              68.493
   10.13             75006.3             69.1224
   10.15               72722             69.6382
   10.17               70488             70.0427
   10.19             68304.2              70.339
   10.21             66170.3               70.53
   10.23               64086             70.6188
   10.25               62051             70.6088
   10.27               60065             70.5032
   10.29             58127.6             70.3056
   10.31             56238.6             70.0195
   10.33             54397.4             69.6486
   10.35             52603.7             69.1966
   10.37             50857.1             68.6674
   10.39             49157.1             68.0647
   10.41             47503.2             67.3924
   10.43             45894.9             66.6544
   10.45             44331.8             65.8544
   10.47             42813.2             64.9965
   10.49             41338.6             64.0844
   10.51             39907.5             63.1219
   10.53             38519.3              62.113
   10.55             37173.4             61.0613
   10.57             35869.2             59.9705
   10.59             34605.9             58.8442
   10.61             33383.1             57.6861
   10.63               32200             56.4995
   10.65             31056.1              55.288
   10.67             29950.5             54.0548
   10.69             28882.6             52.8031
   10.71             27851.8              51.536
   10.73             26857.4             50.2566
   10.75             25898.5             48.9677
   10.77             24974.7             47.6721
   10.79               24085             46.3725
   10.81             23228.8             45.0715
   10.83             22405.4             43.7713
   10.85             21614.1             42.4744
   10.87             20854.1              41.183
   10.89             20124.8              39.899
   10.91             19425.3             38.6243
   10.93             18755.1             37.3609
   10.95             18113.3             36.1104
   10.97             17499.3             34.8743
   10.99             16912.3              33.654
   11.01             16351.7              32.451
   11.03             15816.8             31.2663
   11.05             15306.7             30.1011
   11.07             14821.1             28.9563
   11.09             14359.1             27.8329
   11.11             13920.1             26.7315
   11.13             13503.3             25.6528
   11.15             13108.3             24.5999
   11.17             12734.3             23.5658
   11.19             12380.7             22.5584
   11.21             12046.8             21.5753
   11.23             11732.2             20.6169
   11.25             11436.2             19.6833
   11.27             11158.2             18.7744
   11.29             10897.7             17.8905
   11.31             10654.1             17.0312
   11.33             10426.8             16.1966
   11.35             10215.4             15.3865
   11.37             10019.3             14.6005
   11.39             9838.09             13.8385
   11.41             9671.16                13.1
   11.43             9518.08             12.3848
   11.45             9378.25             11.6925
   11.47             9251.52             11.0226
   11.49             9137.29             10.3746
   11.51             9035.13             9.74814
   11.53             8944.62              9.1427
   11.55             8865.46             8.55777
   11.57             8797.09              7.9929
   11.59             8739.22             7.44747
   11.61             8691.47             6.92104
   11.63              8653.5             6.41306
   11.65             8624.97             5.92303
   11.67             8605.54             5.45043
   11.69              8594.9             4.99476
   11.71             8592.73             4.55553
   11.73             8598.74             4.13226
   11.75             8612.65             3.72448
   11.77             8634.17             3.33126
   11.79             8663.04             2.95366
   11.81             8698.99             2.58976
   11.83             8741.79              2.2397
   11.85             8791.19              1.9031
   11.87             8846.96             1.57965
   11.89             8908.87               1.269
   11.91             8976.72            0.970893
   11.93             9050.29             0.68506
   11.95             9129.39            0.411271
   11.97             9213.82            0.149324
   11.99             9303.41            0.100957
   12.01             9397.97            0.339719
   12.03             9497.33            0.567082
   12.05             9601.32            0.783137
   12.07             9709.81             0.98795
   12.09              9822.5              1.1813
   12.11              9939.5             1.36374
   12.13             10060.6             1.53498
   12.15             10185.5             1.69525
   12.17             10314.2             1.84364
   12.19             10446.6             1.98092
   12.21             10582.5             2.10671
   12.23             10721.9             2.22088
   12.25             10864.5             2.32329
   12.27             11010.3             2.41377
   12.29             11159.3             2.49216
   12.31             11311.2             2.55826
   12.33             11466.1             2.61189
   12.35             11623.7             2.65282
   12.37             11784.1             2.68083
   12.39             11947.2             2.69572
   12.41             12112.8             2.69725
   12.43               12281              2.6852
   12.45             12451.5             2.65932
   12.47             12624.4             2.61941
   12.49             12799.6             2.56524
   12.51             12977.1             2.49659
   12.53             13156.7             2.41327
   12.55             13338.4             2.31507
   12.57             13522.2             2.20182
   12.59               13708             2.07335
   12.61             13895.8             1.92951
   12.63             14085.4             1.77019
   12.65               14277             1.59527
   12.67             14470.4             1.40468
   12.69             14665.6             1.19836
   12.71             14862.5            0.976298
   12.73             15061.2            0.738462
   12.75             15261.5            0.484908
   12.77             15463.6            0.215798
   12.79             15667.3           0.0689397
   12.81             15872.5            0.369083
   12.83             16079.4            0.684455
   12.85             16287.8             1.01485
   12.87             16497.7             1.36024
   12.89             16709.3              1.7198
   12.91             16922.4             2.09349
   12.93             17136.9             2.48092
   12.95               17353             2.88166
   12.97             17570.5             3.29524
   12.99             17789.6             3.72131
   13.01             18010.1             4.15884
   13.03               18232              4.6077
   13.05             18455.5              5.0671
   13.07             18680.4             5.53633
   13.09             18906.8             6.01468
   13.11             19134.7             6.50137
   13.13               19364             6.99559
   13.15             19594.8             7.49649
   13.17             19827.2             8.00318
   13.19             20061.1             8.51474
   13.21             20296.4             9.03021
   13.23             20533.4              9.5486
   13.25             20771.9             10.0689
   13.27               21012               10.59
   13.29             21253.7             11.1109
   13.31             21497.1             11.6316
   13.33             21742.1             12.1475
   13.35             21988.9              12.661
   13.37             22237.3             13.1697
   13.39             22487.6             13.6725
   13.41             22739.7             14.1682
   13.43             22993.6             14.6556
   13.45             23249.5             15.1335
   13.47             23507.3             15.6007
   13.49             23767.1             16.0561
   13.51               24029             16.4985
   13.53             24293.1             16.9268
   13.55             24559.3             17.3397
   13.57             24827.8             17.7362
   13.59             25098.7             18.1151
   13.61               25372             18.4753
   13.63             25647.7             18.8159
   13.65             25926.1             19.1358
   13.67             26207.1              19.434
   13.69             26490.9             19.7096
   13.71             26777.6             19.9616
   13.73             27067.2             20.1893
   13.75             27359.9             20.3917
   13.77             27655.8             20.5682
   13.79             27954.9              20.718
   13.81             28257.4             20.8401
   13.83             28563.5             20.9347
   13.85             28873.3              21.001
   13.87             29186.8             21.0384
   13.89             29504.3             21.0464
   13.91             29825.8             21.0249
   13.93             30151.4             20.9735
   13.95             30481.5              20.892
   13.97             30815.9             20.7804
   13.99               31155             20.6377
   14.01             31498.9             20.4663
   14.03             31847.7              20.264
   14.05             32201.5             20.0318
   14.07             32560.6             19.7698
   14.09               32925             19.4783
   14.11               33295             19.1578
   14.13             33670.6             18.8086
   14.15             34052.1             18.4314
   14.17             34439.5             18.0266
   14.19             34833.1             17.5948
   14.21             35232.9             17.1369
   14.23             35639.1             16.6536
   14.25             36051.9             16.1456
   14.27             36471.4             15.6139
   14.29             36897.7             15.0594
   14.31             37330.9              14.483
   14.33             37771.1             13.8859
   14.35             38218.5             13.2691
   14.37             38673.1             12.6336
   14.39               39135             11.9807
   14.41             39604.4             11.3116
   14.43             40081.2             10.6273
   14.45             40565.5             9.92932
   14.47             41057.4             9.21875
   14.49             41556.9             8.49693
   14.51               42064             7.76514
   14.53             42578.7             7.02474
   14.55               43101             6.27698
   14.57             43630.8              5.5232
   14.59             44168.1             4.76474
   14.61             44712.8              4.0029
   14.63             45264.9               3.239
   14.65             45824.2             2.47432
   14.67             46390.5             1.71016
   14.69             46963.8            0.947771
   14.71             47543.9            0.188391
   14.73             48130.6            0.566763
   14.75             48723.6             1.31651
   14.77             49322.7             2.05969
   14.79             49927.7             2.79519
   14.81             50538.2             3.52193
   14.83               51154             4.23887
   14.85             51774.6             4.94501
   14.87             52399.9             5.63939
   14.89             53029.3             6.32111
   14.91             53662.5             6.98931
   14.93             54299.1             7.64318
   14.95             54938.5             8.28196
   14.97             55580.3             8.90493
   14.99             56224.1             9.51146
   15.01             56869.2             10.1009
   15.03             57515.2             10.6728
   15.05             58161.5             11.2266
   15.07             58807.5              11.762
   15.09             59452.6             12.2784
   15.11             60096.2             12.7755
   15.13             60737.6             13.2531
   15.15             61376.3              13.711
   15.17             62011.4              14.149
   15.19             62642.5              14.567
   15.21             63268.7             14.9648
   15.23             63889.3             15.3426
   15.25             64503.7             15.7003
   15.27             65111.2             16.0379
   15.29             65710.9             16.3557
   15.31             66302.3             16.6536
   15.33             66884.5             16.9321
   15.35             67456.8             17.1912
   15.37             68018.5             17.4312
   15.39             68568.9             17.6525
   15.41             69107.3             17.8553
   15.43             69632.9             18.0401
   15.45               70145             18.2071
   15.47             70642.9             18.3568
   15.49               71126             18.4896
   15.51             71593.6              18.606
   15.53             72045.1             18.7063
   15.55             72479.7             18.7908
   15.57             72896.9              18.861
   15.59             73296.1             18.9161
   15.61             73676.8             18.9572
   15.63             74038.3             18.9847
   15.65             74380.3              18.999
   15.67             74702.1             19.0008
   15.69             75003.3             18.9903
   15.71             75283.6             18.9682
   15.73             75542.5             18.9349
   15.75             75779.6             18.8908
   15.77             75994.6             18.8364
   15.79             76187.3             18.7722
   15.81             76357.4             18.6985
   15.83             76504.6             18.6157
   15.85             76628.8             18.5243
   15.87             76729.9             18.4246
   15.89             76807.8             18.3169
   15.91             76862.3             18.2016
   15.93             76893.5              18.079
   15.95             76901.4             17.9494
   15.97             76886.1              17.813
   15.99             76847.6             17.6701
   16.01             76786.1             17.5208
   16.03             76701.8             17.3655
   16.05             76594.9             17.2043
   16.07             76465.6             17.0373
   16.09             76314.2             16.8647
   16.11             76141.1             16.6867
   16.13             75946.7             16.5032
   16.15             75731.2             16.3144
   16.17             75495.2             16.1203
   16.19             75239.2              15.921
   16.21             74963.5             15.7166
   16.23             74668.7              15.507
   16.25             74355.5             15.2922
   16.27             74024.3             15.0723
   16.29             73675.7             14.8472
   16.31             73310.4             14.6168
   16.33             72929.1             14.3813
   16.35             72532.3             14.1404
   16.37             72120.8             13.8941
   16.39             71695.2             13.6425
   16.41             71256.3             13.3854
   16.43             70804.9             13.1229
   16.45             70341.5             12.8547
   16.47               69867              12.581
   16.49             69382.1             12.3016
   16.51             68887.6             12.0166
   16.53             68384.2             11.7258
   16.55             67872.7             11.4293
   16.57             67353.8              11.127
   16.59             66828.3             10.8189
   16.61               66297             10.5051
   16.63             65760.5             10.1856
   16.65             65219.6             9.86033
   16.67             64675.2             9.52945
   16.69             64127.7             9.19299
   16.71             63578.1             8.85105
   16.73             63026.9             8.50372
   16.75             62474.9             8.15112
   16.77             61922.7              7.7934
   16.79             61370.9             7.43072
   16.81             60820.3             7.06325
   16.83             60271.5              6.6912
   16.85             59724.9             6.31479
   16.87             59181.3             5.93426
   16.89             58641.1             5.54986
   16.91               58105              5.1619
   16.93             57573.4             4.77065
   16.95             57046.8             4.37646
   16.97             56525.8             3.97965
   16.99             56010.7             3.58059
   17.01             55502.1             3.17965
   17.03             55000.3             2.77723
   17.05             54505.8             2.37375
   17.07             54018.8             1.96962
   17.09             53539.9              1.5653
   17.11             53069.2             1.16124
   17.13             52607.1            0.757909
   17.15               52154            0.355784
   17.17               51710           0.0446391
   17.19             51275.5            0.442859
   17.21             50850.6            0.838368
   17.23             50435.7             1.23065
   17.25             50030.8             1.61918
   17.27             49636.2             2.00344
   17.29             49252.1             2.38291
   17.31             48878.5             2.75704
   17.33             48515.7             3.12533
   17.35             48163.7             3.48723
   17.37             47822.6             3.84224
   17.39             47492.6             4.18983
   17.41             47173.8             4.52951
   17.43             46866.1             4.86075
   17.45             46569.7             5.18309
   17.47             46284.5             5.49604
   17.49             46010.7             5.79913
   17.51             45748.2             6.09191
   17.53               45497             6.37395
   17.55             45257.2             6.64483
   17.57             45028.7             6.90415
   17.59             44811.6             7.15153
   17.61             44605.7             7.38662
   17.63             44411.1             7.60908
   17.65             44227.7             7.81859
   17.67             44055.5             8.01488
   17.69             43894.4             8.19768
   17.71             43744.3             8.36677
   17.73             43605.2             8.52193
   17.75             43476.9             8.66299
   17.77             43359.5             8.78981
   17.79             43252.7             8.90227
   17.81             43156.6             9.00029
   17.83               43071             9.08381
   17.85             42995.7             9.15282
   17.87             42930.6             9.20734
   17.89             42875.7              9.2474
   17.91             42830.7              9.2731
   17.93             42795.6             9.28453
   17.95             42770.1             9.28186
   17.97             42754.1             9.26526
   17.99             42747.4             9.23495
   18.01             42749.9             9.19118
   18.03             42761.3             9.13423
   18.05             42781.4             9.06442
   18.07             42810.1             8.98201
   18.09             42847.1             8.88755
   18.11             42892.1             8.78137
   18.13               42945             8.66389
   18.15             43005.5              8.5356
   18.17             43073.2             8.39699
   18.19             43148.1             8.24859
   18.21             43229.7             8.09095
   18.23             43317.7             7.92466
   18.25             43411.9              7.7503
   18.27             43511.9             7.56851
   18.29             43617.5             7.37994
   18.31             43728.2             7.18525
   18.33             43843.7             6.98511
   18.35             43963.7             6.78025
   18.37             44087.8             6.57135
   18.39             44215.5             6.35917
   18.41             44346.6             6.14442
   18.43             44480.5             5.92786
   18.45             44616.9             5.71026
   18.47             44755.4             5.49235
   18.49             44895.5             5.27489
   18.51             45036.8             5.05866
   18.53             45178.9             4.84442
   18.55             45321.2             4.63291
   18.57             45463.3              4.4249
   18.59             45604.7             4.22113
   18.61               45745             4.02232
   18.63             45883.7             3.82921
   18.65             46020.2             3.64249
   18.67             46154.2             3.46286
   18.69               46285             3.29099
   18.71             46412.3             3.12753
   18.73             46535.5              2.9731
   18.75               46654             2.82831
   18.77             46767.6             2.69374
   18.79             46875.5             2.56993
   18.81             46977.4              2.4574
   18.83             47072.7             2.35664
   18.85               47161              2.2681
   18.87             47241.7             2.19219
   18.89             47314.5             2.12929
   18.91             47378.8             2.07975
   18.93             47434.3             2.04388
   18.95             47480.4             2.02192
   18.97             47516.7             2.01411
   18.99             47542.8             2.02062
   19.01             47558.4              2.0416
   19.03             47562.9             2.07713
   19.05             47556.1             2.12727
   19.07             47537.5              2.1921
   19.09             47506.9             2.27142
   19.11             47463.8             2.36523
   19.13             47408.1             2.47341
   19.15             47339.3              2.5958
   19.17             47257.3             2.73217
   19.19             47161.7             2.88228
   19.21             47052.4             3.04583
   19.23             46929.2             3.22248
   19.25             46791.8             3.41185
   19.27             46640.1             3.61354
   19.29               46474             3.82709
   19.31             46293.4             4.05201
   19.33             46098.1             4.28778
   19.35             45888.2             4.53385
   19.37             45663.5             4.78963
   19.39             45424.1              5.0545
   19.41               45170             5.32782
   19.43             44901.3             5.60893
   19.45             44617.9             5.89714
   19.47               44320             6.19175
   19.49             44007.7             6.49201
   19.51             43681.1              6.7972
   19.53             43340.5             7.10655
   19.55             42985.9              7.4193
   19.57             42617.7             7.73467
   19.59               42236             8.05188
   19.61             41841.1             8.37015
   19.63             41433.3             8.68869
   19.65             41012.9             9.00673
   19.67             40580.2             9.32346
   19.69             40135.5             9.63814
   19.71             39679.3             9.94998
   19.73             39211.9             10.2582
   19.75             38733.7             10.5622
   19.77             38245.1             10.8611
   19.79             37746.6             11.1542
   19.81             37238.5             11.4409
   19.83             36721.5             11.7205
   19.85             36195.8             11.9924
   19.87               35662             12.2559
   19.89             35120.7             12.5104
   19.91             34572.3             12.7555
   19.93             34017.2             12.9905
   19.95             33456.2              13.215
   19.97             32889.5             13.4284
   19.99             32317.9             13.6305
   20.01             31741.8             13.8207
