## w(eV)         sigma(Sm^-1)        error(Sm^-1)
    0.01         2.73612e+06              420.84
    0.03           2.735e+06              420.17
    0.05         2.73275e+06             418.818
    0.07         2.72936e+06             416.816
    0.09         2.72481e+06             414.156
    0.11         2.71909e+06             410.849
    0.13         2.71215e+06             406.905
    0.15         2.70398e+06             402.337
    0.17         2.69453e+06              397.16
    0.19         2.68376e+06             391.389
    0.21         2.67164e+06             385.058
    0.23         2.65812e+06             378.155
    0.25         2.64316e+06             370.715
    0.27         2.62672e+06             362.756
    0.29         2.60875e+06             354.299
    0.31         2.58921e+06             345.362
    0.33         2.56808e+06             335.965
    0.35         2.54532e+06             326.125
    0.37         2.52091e+06             315.861
    0.39         2.49482e+06             305.186
    0.41         2.46704e+06             294.115
    0.43         2.43758e+06             282.658
    0.45         2.40642e+06             270.825
    0.47         2.37359e+06             258.621
    0.49         2.33911e+06             246.049
    0.51           2.303e+06             233.108
    0.53         2.26532e+06             219.794
    0.55          2.2261e+06             206.099
    0.57         2.18541e+06             192.012
    0.59         2.14333e+06             177.516
    0.61         2.09993e+06             162.594
    0.63         2.05531e+06             147.222
    0.65         2.00957e+06             131.375
    0.67          1.9628e+06             115.024
    0.69         1.91514e+06             98.1381
    0.71          1.8667e+06             80.6827
    0.73         1.81761e+06             62.6231
    0.75           1.768e+06             43.9234
    0.77         1.71802e+06             24.5474
    0.79          1.6678e+06             4.45984
    0.81         1.61749e+06             16.3729
    0.83         1.56723e+06             37.9818
    0.85         1.51717e+06             60.3975
    0.87         1.46746e+06             83.6359
    0.89         1.41823e+06             107.716
    0.91         1.36963e+06             132.646
    0.93         1.32179e+06             158.427
    0.95         1.27484e+06             185.048
    0.97         1.22891e+06              212.49
    0.99         1.18411e+06             240.719
    1.01         1.14057e+06              269.69
    1.03         1.09837e+06             299.342
    1.05         1.05763e+06               329.6
    1.07         1.01842e+06             360.373
    1.09              980816             391.555
    1.11              944897             423.021
    1.13              910717             454.631
    1.15              878324             486.227
    1.17              847758             517.638
    1.19              819047             548.673
    1.21              792211             579.129
    1.23              767260              608.79
    1.25              744194             637.425
    1.27              723004             664.796
    1.29              703673             690.656
    1.31              686175             714.751
    1.33              670476             736.825
    1.35              656536             756.621
    1.37              644306             773.884
    1.39              633732             788.367
    1.41              624753             799.829
    1.43              617302             808.044
    1.45              611309               812.8
    1.47              606699             813.905
    1.49              603392             811.189
    1.51              601306             804.508
    1.53              600355             793.745
    1.55              600452             778.817
    1.57              601507             759.673
    1.59              603431             736.297
    1.61              606131             708.712
    1.63              609516             676.979
    1.65              613495             641.198
    1.67              617977              601.51
    1.69              622872             558.094
    1.71              628092             511.169
    1.73              633550             460.992
    1.75              639162             407.852
    1.77              644847             352.076
    1.79              650524             294.017
    1.81              656118             234.058
    1.83              661556             172.603
    1.85              666769             110.078
    1.87              671692             46.9195
    1.89              676263             16.4229
    1.91              680425              79.496
    1.93              684124             141.846
    1.95              687313             203.025
    1.97              689947             262.595
    1.99              691986             320.133
    2.01              693396             375.235
    2.03              694145             427.522
    2.05              694209             476.625
    2.07              693566             522.259
    2.09              692199             564.125
    2.11              690096             601.978
    2.13              687250             635.615
    2.15              683658              664.88
    2.17              679321             689.644
    2.19              674242             709.838
    2.21              668433             725.434
    2.23              661904             736.444
    2.25              654675             742.927
    2.27              646763              744.98
    2.29              638193              742.74
    2.31              628992             736.381
    2.33              619187             726.109
    2.35              608812             712.161
    2.37              597901             694.799
    2.39              586491              674.31
    2.41              574618             650.996
    2.43              562325             625.178
    2.45              549652             597.182
    2.47              536642             567.344
    2.49              523339                 536
    2.51              509785             503.484
    2.53              496027             470.125
    2.55              482108              436.24
    2.57              468073             402.136
    2.59              453966             368.104
    2.61              439830             334.413
    2.63              425707             301.315
    2.65              411641             269.036
    2.67              397670             237.778
    2.69              383833             207.719
    2.71              370169             179.008
    2.73              356714             151.766
    2.75              343500             126.088
    2.77              330562              102.04
    2.79              317929             79.6626
    2.81              305630             58.9679
    2.83              293692             39.9503
    2.85              282141             22.5547
    2.87              270999             6.74132
    2.89              260288             7.57591
    2.91              250028             20.4956
    2.93              240238             32.1333
    2.95              230934             42.6196
    2.97              222133             52.0974
    2.99              213849               60.72
    3.01              206096             68.6488
    3.03              198887             76.0508
    3.05              192233              83.096
    3.07              186147             89.9554
    3.09              180640             96.7987
    3.11              175724             103.792
    3.13              171409             111.095
    3.15              167706             118.859
    3.17              164628             127.227
    3.19              162184             136.328
    3.21              160388             146.279
    3.23              159251              157.18
    3.25              158784             169.114
    3.27              159002             182.147
    3.29              159915             196.323
    3.31              161537             211.669
    3.33              163880             228.187
    3.35              166956             245.858
    3.37              170777             264.641
    3.39              175353             284.471
    3.41              180696             305.261
    3.43              186813             326.902
    3.45              193712             349.261
    3.47              201397             372.187
    3.49              209873             395.505
    3.51              219139             419.024
    3.53              229194             442.534
    3.55              240031             465.811
    3.57              251640             488.616
    3.59              264010               510.7
    3.61              277121             531.806
    3.63              290952             551.669
    3.65              305475             570.025
    3.67              320659             586.606
    3.69              336465             601.151
    3.71              352851             613.403
    3.73              369769             623.118
    3.75              387165             630.064
    3.77              404980             634.026
    3.79              423148             634.809
    3.81              441601             632.241
    3.83              460263             626.176
    3.85              479057             616.498
    3.87              497897              603.12
    3.89              516699             585.989
    3.91              535371             565.086
    3.93              553820              540.43
    3.95              571953             512.074
    3.97              589675             480.109
    3.99              606888             444.663
    4.01              623497             405.899
    4.03              639408             364.018
    4.05              654529             319.252
    4.07              668769             271.864
    4.09              682044             222.147
    4.11              694271             170.422
    4.13              705375             117.021
    4.15              715286             62.3135
    4.17              723940             6.66947
    4.19              731281             49.5255
    4.21              737261              105.88
    4.23              741842             161.999
    4.25              744991             217.496
    4.27              746688             271.986
    4.29              746919             325.095
    4.31              745684             376.467
    4.33              742987             425.764
    4.35              738845             472.671
    4.37              733284               516.9
    4.39              726338              558.19
    4.41              718049             596.313
    4.43              708469             631.075
    4.45              697657             662.315
    4.47              685677             689.909
    4.49              672603              713.77
    4.51              658511             733.845
    4.53              643483             750.121
    4.55              627607             762.616
    4.57              610972             771.384
    4.59              593669             776.511
    4.61              575793             778.112
    4.63              557438              776.33
    4.65              538697             771.333
    4.67              519664              763.31
    4.69              500432             752.472
    4.71              481089             739.041
    4.73              461723             723.255
    4.75              442418             705.361
    4.77              423251              685.61
    4.79              404300             664.259
    4.81              385633             641.562
    4.83              367317             617.773
    4.85              349413             593.138
    4.87              331974             567.897
    4.89              315051             542.278
    4.91              298686             516.498
    4.93              282919             490.761
    4.95              267783             465.254
    4.97              253305             440.148
    4.99              239508             415.598
    5.01              226408             391.739
    5.03              214020              368.69
    5.05              202352             346.549
    5.07              191408               325.4
    5.09              181189             305.304
    5.11              171692             286.308
    5.13              162911             268.441
    5.15              154837             251.717
    5.17              147458             236.134
    5.19              140762             221.677
    5.21              134733             208.319
    5.23              129354              196.02
    5.25              124607             184.731
    5.27              120474             174.395
    5.29              116934             164.948
    5.31              113967             156.317
    5.33              111555             148.428
    5.35              109675             141.204
    5.37              108310             134.562
    5.39              107440              128.42
    5.41              107046             122.702
    5.43              107111             117.327
    5.45              107618             112.218
    5.47              108552             107.302
    5.49              109900             102.511
    5.51              111648             97.7821
    5.53              113786             93.0564
    5.55              116304             88.2827
    5.57              119195             83.4159
    5.59              122452             78.4179
    5.61              126072             73.2575
    5.63              130051             67.9107
    5.65              134388             62.3608
    5.67              139085             56.5978
    5.69              144143             50.6185
    5.71              149566             44.4265
    5.73              155360             38.0311
    5.75              161531             31.4475
    5.77              168087             24.6959
    5.79              175037             17.8011
    5.81              182389             10.7916
    5.83              190155             3.69935
    5.85              198344              3.4411
    5.87              206967             10.5934
    5.89              216035             17.7202
    5.91              225557             24.7832
    5.93              235543             31.7449
    5.95              246002             38.5681
    5.97              256940             45.2175
    5.99              268363             51.6596
    6.01              280276             57.8582
    6.03              292679             63.8011
    6.05              305573             69.4485
    6.07              318954             74.7849
    6.09              332816             79.7937
    6.11              347150             84.4626
    6.13              361944             88.7839
    6.15              377184             92.7539
    6.17              392848             96.3763
    6.19              408916             99.6524
    6.21              425361             102.594
    6.23              442153             105.214
    6.25              459259             107.531
    6.27              476642             109.566
    6.29              494262             111.343
    6.31              512076              112.89
    6.33              530038             114.236
    6.35              548099             115.413
    6.37              566206             116.455
    6.39              584307             117.395
    6.41              602346             118.268
    6.43              620266              119.11
    6.45              638010             119.956
    6.47              655518              120.84
    6.49              672733             121.794
    6.51              689596             122.751
    6.53              706049             124.043
    6.55              722038             125.388
    6.57              737507             126.915
    6.59              752404             128.646
    6.61              766679             130.595
    6.63              780287             132.781
    6.65              793183              135.21
    6.67              805329             137.888
    6.69              816689             140.816
    6.71              827232              143.99
    6.73              836933             147.403
    6.75              845770             151.041
    6.77              853727             154.886
    6.79              860792             158.916
    6.81              866959             163.105
    6.83              872226             167.421
    6.85              876598             171.828
    6.87              880083             176.287
    6.89              882695             180.754
    6.91              884450             185.186
    6.93              885372             189.531
    6.95              885484             193.737
    6.97              884818             197.751
    6.99              883404              201.52
    7.01              881277             204.987
    7.03              878476             208.098
    7.05              875038             210.799
    7.07              871005             213.037
    7.09              866417             214.762
    7.11              861316             215.923
    7.13              855745             216.483
    7.15              849745               216.4
    7.17              843358             215.641
    7.19              836622             214.177
    7.21              829579             211.989
    7.23              822265             209.062
    7.25              814715              205.39
    7.27              806966             200.972
    7.29              799047             195.817
    7.31              790991              189.95
    7.33              782826             183.388
    7.35              774578             176.168
    7.37              766271             168.332
    7.39              757929             159.928
    7.41              749572             151.013
    7.43              741221             141.649
    7.45              732894             131.904
    7.47              724608             121.849
    7.49              716379             111.561
    7.51              708222             101.118
    7.53              700152             90.5999
    7.55              692182             80.0862
    7.57              684326             69.6556
    7.59              676597             59.3846
    7.61              669006              49.346
    7.63              661566             39.6077
    7.65              654289             30.2316
    7.67              647185             21.2728
    7.69              640265             12.7783
    7.71              633539             4.78601
    7.73              627016             2.67547
    7.75              620704             9.58787
    7.77              614610             15.9435
    7.79              608738             21.7454
    7.81              603094             27.0076
    7.83              597679             31.7549
    7.85              592493             36.0227
    7.87              587534             39.8561
    7.89              582798             43.3099
    7.91              578276             46.4471
    7.93              573961             49.3387
    7.95              569840             52.0619
    7.97              565897             54.6994
    7.99              562117             57.3378
    8.01              558478             60.0664
    8.03              554959             62.9759
    8.05              551535             66.1567
    8.07              548179             69.6975
    8.09              544865             73.6844
    8.11              541562              78.199
    8.13              538240             83.3163
    8.15              534869             89.1057
    8.17              531418             95.6281
    8.19              527855             102.935
    8.21              524152             111.069
    8.23              520279             120.062
    8.25              516211             129.933
    8.27              511922             140.692
    8.29              507391             152.334
    8.31              502598             164.845
    8.33              497528             178.197
    8.35              492169             192.352
    8.37              486511             207.257
    8.39              480551             222.852
    8.41              474288             239.063
    8.43              467727             255.808
    8.45              460875             272.994
    8.47              453744             290.521
    8.49              446351              308.28
    8.51              438715             326.157
    8.53              430859             344.029
    8.55              422809             361.771
    8.57              414595             379.254
    8.59              406247             396.345
    8.61              397799              412.91
    8.63              389286             428.815
    8.65              380741             443.925
    8.67              372202             458.107
    8.69              363703             471.232
    8.71              355280             483.173
    8.73              346965             493.809
    8.75              338792             503.024
    8.77              330790             510.709
    8.79              322986             516.762
    8.81              315406             521.133
    8.83              308071             523.613
    8.85              300998             524.257
    8.87              294204             522.959
    8.89              287698             519.672
    8.91              281487             514.362
    8.93              275576             507.003
    8.95              269963              497.59
    8.97              264645             486.127
    8.99              259614             472.636
    9.01              254859             457.152
    9.03              250365             439.728
    9.05              246117             420.429
    9.07              242095             399.336
    9.09              238277             376.545
    9.11              234640             352.166
    9.13              231159             326.321
    9.15              227810             299.146
    9.17              224566             270.787
    9.19              221401             241.403
    9.21              218289             211.157
    9.23              215204             180.225
    9.25              212121             148.786
    9.27              209018             117.024
    9.29              205873             85.1257
    9.31              202666             53.2785
    9.33              199378             21.6694
    9.35              195994             9.51744
    9.37              192501             40.1024
    9.39              188888             69.9121
    9.41              185146             98.7808
    9.43              181270             126.552
    9.45              177256             153.081
    9.47              173103             178.235
    9.49              168814             201.893
    9.51              164392             223.951
    9.53              159844             244.317
    9.55              155177             262.918
    9.57              150402             279.695
    9.59              145530             294.606
    9.61              140575             307.625
    9.63              135551             318.743
    9.65              130472             327.965
    9.67              125356             335.314
    9.69              120218             340.824
    9.71              115075             344.545
    9.73              109944             346.538
    9.75              104842             346.876
    9.77             99784.6             345.642
    9.79             94788.2             342.926
    9.81             89867.8             338.829
    9.83             85037.8             333.454
    9.85             80311.2             326.912
    9.87             75701.1             319.313
    9.89             71218.4             310.772
    9.91               66873             301.404
    9.93               62674             291.324
    9.95             58628.8             280.642
    9.97             54743.8             269.469
    9.99               51024              257.91
   10.01             47473.3             246.065
   10.03             44094.2             234.031
   10.05             40888.2             221.896
   10.07             37855.8             209.743
   10.09             34996.2             197.649
   10.11             32307.9             185.684
   10.13             29788.3             173.909
   10.15             27434.1              162.38
   10.17             25241.5             151.145
   10.19             23205.6             140.245
   10.21             21321.4             129.714
   10.23             19583.4             119.581
   10.25             17985.4             109.868
   10.27             16521.2             100.591
   10.29             15184.3             91.7618
   10.31             13968.1             83.3874
   10.33             12865.9               75.47
   10.35             11870.8             68.0083
   10.37             10976.3             60.9976
   10.39             10175.5             54.4305
   10.41             9462.13             48.2969
   10.43             8829.64             42.5852
   10.45              8271.9             37.2818
   10.47             7782.96             32.3721
   10.49             7357.06             27.8404
   10.51             6988.73             23.6708
   10.53             6672.74             19.8467
   10.55             6404.13             16.3516
   10.57             6178.23             13.1689
   10.59             5990.61             10.2825
   10.61             5836.97             7.63884
   10.63              5713.7             5.33681
   10.65             5617.23             3.24578
   10.67             5544.05             1.39079
   10.69             5491.05            0.241819
   10.71             5455.35             1.66509
   10.73              5434.3             2.89148
   10.75             5425.44             3.93287
   10.77             5426.53             4.80061
   10.79             5435.51             5.50557
   10.81             5450.51             6.05819
   10.83             5469.81             6.46851
   10.85             5491.85             6.74626
   10.87             5515.22             6.90085
   10.89             5538.66             6.94148
   10.91             5561.02             6.87713
   10.93              5581.3             6.71661
   10.95             5598.57              6.4686
   10.97             5612.06             6.14166
   10.99             5621.07             5.74421
   11.01             5625.02             5.28459
   11.03             5623.41             4.77103
   11.05             5615.84             4.21162
   11.07             5601.99             3.61432
   11.09             5581.63             2.98694
   11.11             5554.61             2.33709
   11.13             5520.88             1.67218
   11.15             5480.43            0.999355
   11.17             5433.36             0.32548
   11.19             5379.82            0.342896
   11.21             5320.05            0.999579
   11.23             5254.35             1.63876
   11.25             5183.09             2.25506
   11.27             5106.71             2.84353
   11.29              5025.7              3.3997
   11.31             4940.63              3.9196
   11.33              4852.1             4.39977
   11.35              4760.8             4.83725
   11.37             4667.45             5.22903
   11.39              4572.8             5.57425
   11.41             4477.66             5.87104
   11.43             4382.88             6.11855
   11.45             4289.34              6.3164
   11.47             4197.95             6.46468
   11.49             4109.64             6.56396
   11.51             4025.35             6.61522
   11.53             3946.05             6.61985
   11.55              3872.7              6.5796
   11.57             3806.14             6.49429
   11.59              3747.6             6.37131
   11.61             3697.87             6.21045
   11.63             3657.86              6.0146
   11.65             3628.49             5.78684
   11.67              3610.6             5.53037
   11.69             3605.02             5.24854
   11.71             3612.52             4.94474
   11.73             3633.83             4.62244
   11.75             3669.59             4.28858
   11.77             3720.39             3.93632
   11.79             3786.75             3.57925
   11.81             3869.09             3.21735
   11.83             3967.77             2.85385
   11.85             4083.02             2.49186
   11.87             4215.01             2.13435
   11.89             4363.77             1.78412
   11.91             4529.26             1.44379
   11.93              4711.3             1.11574
   11.95             4909.61            0.802142
   11.97             5123.78            0.504921
   11.99             5353.31            0.225724
   12.01             5597.56           0.0340846
   12.03             5855.79            0.273447
   12.05             6127.14            0.491622
   12.07             6410.64            0.688211
   12.09             6705.21            0.863167
   12.11              7009.7             1.01681
   12.13             7322.82             1.14984
   12.15             7643.26             1.26336
   12.17             7969.58             1.35884
   12.19             8300.32             1.43821
   12.21             8633.96             1.50376
   12.23             8968.94             1.55821
   12.25             9303.69              1.6047
   12.27             9636.62             1.64674
   12.29             9966.18             1.68822
   12.31             10290.8             1.73342
   12.33             10609.1             1.78693
   12.35             10919.5             1.85363
   12.37             11220.8             1.93814
   12.39             11511.7             2.04678
   12.41               11791             2.18466
   12.43             12057.8             2.35738
   12.45             12311.2             2.57062
   12.47             12550.5             2.82998
   12.49             12775.1             3.14096
   12.51             12984.8             3.50884
   12.53             13179.3             3.93862
   12.55             13358.7             4.43487
   12.57             13523.2             5.00171
   12.59             13673.2             5.64264
   12.61             13809.3             6.36048
   12.63             13932.2             7.15725
   12.65               14043             8.03412
   12.67             14142.8             8.99118
   12.69             14232.9             10.0276
   12.71             14314.7             11.1414
   12.73             14389.8             12.3293
   12.75             14459.9             13.5868
   12.77             14526.7             14.9081
   12.79               14592             16.2859
   12.81             14657.7              17.712
   12.83             14725.6             19.1763
   12.85             14797.7             20.6678
   12.87             14875.7              22.174
   12.89             14961.4             23.6812
   12.91             15056.4             25.1748
   12.93             15162.3             26.6388
   12.95             15280.6             28.0566
   12.97             15412.4             29.4107
   12.99             15558.8              30.683
   13.01             15720.9             31.8552
   13.03             15899.1             32.9085
   13.05               16094             33.8241
   13.07             16305.9             34.5836
   13.09             16534.6              35.169
   13.11               16780             35.5628
   13.13             17041.7             35.7485
   13.15             17318.8             35.7108
   13.17             17610.6             35.4355
   13.19             17915.8             34.9102
   13.21             18233.2             34.1242
   13.23             18561.4             33.0686
   13.25             18898.6             31.7369
   13.27             19243.3             30.1246
   13.29             19593.4             28.2296
   13.31             19947.1             26.0523
   13.33             20302.6             23.5958
   13.35             20657.7             20.8652
   13.37             21010.7             17.8687
   13.39             21359.6             14.6168
   13.41             21702.7             11.1223
   13.43             22038.3             7.40038
   13.45             22364.9             3.46851
   13.47             22681.1            0.653895
   13.49             22985.9             4.94558
   13.51             23278.2             9.38362
   13.53             23557.5             13.9437
   13.55             23823.2             18.6004
   13.57             24075.2             23.3273
   13.59             24313.5             28.0973
   13.61             24538.6             32.8831
   13.63             24751.1             37.6569
   13.65             24951.8             42.3914
   13.67             25141.8             47.0596
   13.69             25322.6             51.6348
   13.71             25495.8             56.0914
   13.73               25663             60.4048
   13.75             25826.2             64.5515
   13.77             25987.6             68.5092
   13.79             26149.3             72.2574
   13.81             26313.4             75.7768
   13.83             26482.3             79.0498
   13.85             26658.2             82.0608
   13.87             26843.2             84.7955
   13.89             27039.6             87.2416
   13.91             27249.1             89.3883
   13.93             27473.7             91.2266
   13.95               27715             92.7492
   13.97             27974.2             93.9502
   13.99             28252.5             94.8254
   14.01             28550.6              95.372
   14.03             28869.1             95.5886
   14.05             29207.9              95.475
   14.07               29567             95.0325
   14.09             29945.6             94.2635
   14.11             30342.8             93.1716
   14.13             30757.4             91.7612
   14.15             31187.5             90.0384
   14.17             31631.3             88.0097
   14.19             32086.3             85.6832
   14.21             32549.8             83.0676
   14.23             33019.1              80.173
   14.25             33490.9             77.0102
   14.27             33961.9             73.5913
   14.29             34428.7             69.9293
   14.31             34887.6             66.0383
   14.33             35335.1             61.9335
   14.35             35767.5             57.6311
   14.37             36181.3             53.1484
   14.39             36573.1             48.5037
   14.41             36939.6             43.7163
   14.43             37277.7             38.8064
   14.45             37584.8              33.795
   14.47             37858.3              28.704
   14.49             38096.4              23.556
   14.51             38297.3              18.374
   14.53             38459.9             13.1815
   14.55             38583.7             8.00227
   14.57             38668.5             2.86028
   14.59             38714.8             2.22066
   14.61             38723.7             7.21698
   14.63             38696.8             12.1056
   14.65             38636.4             16.8639
   14.67             38545.3             21.4703
   14.69             38427.1             25.9041
   14.71             38285.7              30.146
   14.73             38125.7             34.1777
   14.75             37952.4             37.9829
   14.77             37771.2             41.5467
   14.79             37588.4              44.856
   14.81             37410.6             47.8998
   14.83             37244.5              50.669
   14.85             37097.4             53.1566
   14.87             36976.8             55.3577
   14.89             36890.4             57.2695
   14.91               36846             58.8912
   14.93             36851.5             60.2242
   14.95             36914.9             61.2719
   14.97             37043.9             62.0396
   14.99             37246.2             62.5342
   15.01             37529.4              62.765
   15.03             37900.6             62.7414
   15.05             38366.7             62.4756
   15.07               38934             61.9802
   15.09             39608.6             61.2693
   15.11             40395.9             60.3576
   15.13             41300.4             59.2605
   15.15             42326.5             57.9939
   15.17             43477.4             56.5743
   15.19             44755.6             55.0179
   15.21             46162.9             53.3412
   15.23               47700             51.5605
   15.25               49367             49.6918
   15.27             51162.7             47.7506
   15.29             53085.1             45.7519
   15.31               55131             43.7101
   15.33             57296.5             41.6389
   15.35             59576.4             39.5512
   15.37             61964.6             37.4591
   15.39             64453.8             35.3738
   15.41               67036             33.3056
   15.43             69701.8             31.2641
   15.45             72441.2             29.2577
   15.47             75243.2             27.2941
   15.49             78095.8             25.3803
   15.51             80986.4             23.5224
   15.53             83901.7             21.7255
   15.55             86827.4             19.9943
   15.57             89749.1             18.3328
   15.59             92651.7             16.7443
   15.61             95519.8             15.2316
   15.63             98337.7             13.7969
   15.65              101090             12.4422
   15.67              103760             11.1689
   15.69              106333             9.97838
   15.71              108793             8.87116
   15.73              111126             7.84805
   15.75              113316             6.90948
   15.77              115351             6.05573
   15.79              117216             5.28696
   15.81              118900             4.60319
   15.83              120392             4.00472
   15.85              121682             3.49064
   15.87              122760             3.06119
   15.89              123620              2.7161
   15.91              124255             2.45504
   15.93              124662              2.2776
   15.95              124836             2.18331
   15.97              124776             2.17158
   15.99              124483             2.24175
   16.01              123958             2.39301
   16.03              123204             2.62444
   16.05              122227             2.93494
   16.07              121032             3.32322
   16.09              119627             3.78782
   16.11              118022             4.32708
   16.13              116227             4.93893
   16.15              114254             5.62119
   16.17              112115             6.37133
   16.19              109825             7.18649
   16.21              107397             8.06348
   16.23              104849             8.99869
   16.25              102194             9.98833
   16.27             99450.9              11.028
   16.29               96635              12.113
   16.31             93763.5             13.2381
   16.33             90853.2             14.3977
   16.35             87920.8              15.586
   16.37             84982.7             16.7964
   16.39               82055             18.0221
   16.41               79153             19.2559
   16.43             76291.5               20.49
   16.45             73484.6             21.7168
   16.47             70745.4              22.927
   16.49             68086.1             24.1129
   16.51             65517.8             25.2651
   16.53             63050.7             26.3745
   16.55             60693.7             27.4318
   16.57             58454.5             28.4277
   16.59             56339.8             29.3526
   16.61             54354.9             30.1972
   16.63               52504             30.9523
   16.65             50790.1             31.6089
   16.67             49214.8             32.1583
   16.69               47779             32.5922
   16.71             46482.2             32.9031
   16.73             45322.8             33.0837
   16.75             44298.4             33.1277
   16.77             43405.6             33.0296
   16.79             42640.2             32.7849
   16.81             41997.1               32.39
   16.83             41470.6              31.842
   16.85             41054.4             31.1405
   16.87             40741.7             30.2849
   16.89             40525.2             29.2766
   16.91             40397.2             28.1181
   16.93             40349.8             26.8132
   16.95             40374.9             25.3673
   16.97             40464.4             23.7869
   16.99               40610               22.08
   17.01             40803.6             20.2556
   17.03               41037             18.3241
   17.05             41302.6             16.2968
   17.07             41592.6             14.1862
   17.09             41899.7             12.0054
   17.11               42217             9.76833
   17.13             42537.9              7.4895
   17.15             42856.3             5.18387
   17.17             43166.4             2.86652
   17.19             43463.2            0.552614
   17.21             43741.7             1.74278
   17.23             43997.9             4.00493
   17.25             44228.1             6.21956
   17.27               44429             8.37307
   17.29               44598             10.4526
   17.31               44733             12.4458
   17.33               44832              14.343
   17.35               44894              16.134
   17.37             44918.1             17.8109
   17.39             44903.9             19.3667
   17.41             44851.3              20.796
   17.43             44760.8             22.0952
   17.45             44632.9             23.2617
   17.47             44468.6             24.2949
   17.49             44269.1             25.1952
   17.51             44035.9             25.9648
   17.53             43770.6             26.6071
   17.55             43475.1             27.1268
   17.57             43151.3             27.5296
   17.59             42801.3             27.8223
   17.61             42427.3             28.0128
   17.63             42031.6             28.1095
   17.65             41616.6             28.1214
   17.67             41184.6             28.0581
   17.69             40738.1             27.9295
   17.71             40279.5             27.7455
   17.73             39811.3              27.516
   17.75             39335.8             27.2508
   17.77             38855.7             26.9595
   17.79             38373.3             26.6511
   17.81             37891.1             26.3343
   17.83             37411.4             26.0169
   17.85             36936.7             25.7062
   17.87             36469.4             25.4086
   17.89             36011.7             25.1298
   17.91             35566.1             24.8743
   17.93             35134.8             24.6461
   17.95               34720             24.4479
   17.97             34324.1             24.2816
   17.99             33949.1             24.1481
   18.01             33597.2             24.0476
   18.03             33270.5             23.9791
   18.05             32970.9             23.9409
   18.07             32700.4             23.9305
   18.09             32460.9             23.9445
   18.11               32254              23.979
   18.13             32081.4             24.0292
   18.15             31944.6             24.0898
   18.17             31845.1              24.155
   18.19             31784.1             24.2184
   18.21             31762.6             24.2733
   18.23             31781.8             24.3125
   18.25             31842.2             24.3287
   18.27             31944.7             24.3139
   18.29             32089.6             24.2606
   18.31             32277.1             24.1605
   18.33             32507.5             24.0058
   18.35             32780.6             23.7883
   18.37             33096.1             23.5002
   18.39             33453.5             23.1336
   18.41             33852.4             22.6809
   18.43             34291.8             22.1349
   18.45               34771             21.4886
   18.47             35288.7             20.7356
   18.49             35843.9               19.87
   18.51             36435.3             18.8866
   18.53             37061.4             17.7808
   18.55             37720.8             16.5489
   18.57               38412             15.1881
   18.59             39133.3             13.6966
   18.61               39883             12.0739
   18.63             40659.6             10.3203
   18.65             41461.4             8.43774
   18.67             42286.6             6.42936
   18.69             43133.5             4.29975
   18.71             44000.4             2.05501
   18.73             44885.7            0.297261
   18.75             45787.7             2.74788
   18.77             46704.7             5.28608
   18.79               47635             7.89956
   18.81             48576.9             10.5744
   18.83             49528.7             13.2953
   18.85             50488.6             16.0454
   18.87             51454.9             18.8067
   18.89             52425.7             21.5596
   18.91               53399              24.284
   18.93             54372.8             26.9583
   18.95             55344.9             29.5606
   18.97               56313             32.0683
   18.99             57274.7             34.4586
   19.01             58227.3             36.7085
   19.03             59168.1             38.7955
   19.05             60094.1             40.6972
   19.07               61002             42.3924
   19.09             61888.4             43.8604
   19.11             62749.9             45.0824
   19.13             63582.6             46.0406
   19.15             64382.6             46.7195
   19.17             65145.8             47.1053
   19.19             65867.9             47.1869
   19.21             66544.5             46.9552
   19.23             67171.3             46.4042
   19.25             67743.6             45.5305
   19.27             68257.1             44.3338
   19.29             68707.2             42.8165
   19.31             69089.6             40.9843
   19.33             69399.9             38.8457
   19.35             69634.2             36.4125
   19.37             69788.5             33.6991
   19.39             69859.3             30.7228
   19.41             69843.4             27.5034
   19.43             69737.9             24.0631
   19.45             69540.3             20.4265
   19.47             69248.6               16.62
   19.49             68861.5              12.671
   19.51               68378             8.60909
   19.53             67797.7             4.46442
   19.55             67120.7            0.267779
   19.57             66347.8             3.94975
   19.59             65480.6             8.15716
   19.61             64520.8             12.3239
   19.63             63471.1             16.4201
   19.65             62334.7              20.417
   19.67             61115.2             24.2874
   19.69             59816.9             28.0054
   19.71             58444.5             31.5474
   19.73               57003             34.8916
   19.75             55498.2             38.0188
   19.77             53935.8             40.9121
   19.79             52322.1             43.5573
   19.81             50663.5             45.9428
   19.83             48966.7             48.0597
   19.85             47238.4              49.902
   19.87             45485.5             51.4661
   19.89             43714.7             52.7513
   19.91             41932.9             53.7593
   19.93             40146.6             54.4942
   19.95             38362.5             54.9624
   19.97             36586.7             55.1724
   19.99             34825.3             55.1345
   20.01             33084.1             54.8608
